id,n1_id,n2_id,length,voltage
1,1,2,28092.739381,110000
2,3,4,8830.0432314,110000
3,3,5,19597.0863422,110000
4,6,7,398.107918698,110000
5,8,9,52104.8554309,110000
6,10,11,79363.2834607,110000
7,10,12,27641.4823182,110000
8,11,13,45929.7884691,110000
9,14,15,29530.9424757,110000
10,16,17,34595.9143952,110000
11,18,19,12145.1866013,110000
12,20,21,728.213001558,110000
13,22,23,31030.2332737,110000
14,22,24,13000.5171325,110000
15,22,25,26063.6705388,110000
16,26,27,67915.0002995,110000
17,28,29,19991.8579416,110000
18,30,31,43380.8459966,110000
19,32,33,78928.1155818,110000
20,34,35,7476.21160599,110000
21,36,37,4536.268661,110000
22,38,39,18333.9861757,110000
23,40,41,12495.1770316,110000
24,42,17,45721.7684209,110000
25,43,23,18010.0132735,110000
26,44,45,4601.34377463,110000
27,46,47,34372.6028781,110000
28,48,49,6771.4228383,110000
29,50,51,31926.2621267,110000
30,52,53,14567.7365531,110000
31,54,55,13131.6867349,110000
32,54,56,33719.2835832,110000
33,45,57,26186.1509067,110000
34,45,58,2791.17959324,110000
35,59,60,8789.25757595,110000
36,59,61,36213.8942807,110000
37,59,62,18728.8255279,110000
38,59,63,25332.4505535,110000
39,64,65,39470.2270067,110000
40,66,60,8587.42557905,110000
41,67,68,21067.0526015,110000
42,55,63,14534.5838214,110000
43,37,69,190.469436212,110000
44,37,70,4387.85597858,110000
45,37,71,70818.6258473,110000
46,65,72,17038.7562643,110000
47,73,74,13803.3400444,110000
48,75,76,35858.4356995,110000
49,76,77,17524.0213048,110000
50,78,79,30728.3725386,110000
51,78,80,50860.2311692,110000
52,78,81,22376.0439991,110000
53,24,82,22093.3125443,110000
54,83,84,13341.4909771,110000
55,85,86,4429.5730188,110000
56,87,88,27481.5066912,110000
57,89,90,19104.791703,110000
58,23,91,42436.517075,110000
59,92,93,69600.7181242,110000
60,94,95,82707.5463402,110000
61,94,96,39595.199781,110000
62,97,93,23789.933383,110000
63,98,99,45434.4391807,110000
64,100,99,30379.4064742,110000
65,100,101,14483.9992532,110000
66,100,102,13423.4628259,110000
67,99,103,35732.2989116,110000
68,104,105,2354.16820359,110000
69,106,107,30149.0914637,110000
70,108,109,802.709959457,110000
71,110,111,57988.6954158,110000
72,112,113,23865.7418624,110000
73,114,109,11367.519945,110000
74,115,62,32185.9206659,110000
75,116,117,41924.2157378,110000
76,118,119,37828.6743702,110000
77,120,121,6477.87226209,110000
78,122,17,46374.3042064,110000
79,123,124,22293.1104425,110000
80,123,125,9233.1218814,110000
81,123,121,22558.4892891,110000
82,126,127,2192.58632333,110000
83,13,128,2826.60191436,110000
84,128,129,98033.4747785,110000
85,130,131,1156.68386131,110000
86,130,132,51175.04252,110000
87,133,134,24306.906006,110000
88,135,136,14573.5898313,110000
89,88,111,31763.1529035,110000
90,137,136,88508.3244852,110000
91,137,138,80827.3643295,110000
92,139,140,6457.64646468,110000
93,141,134,40547.0482632,110000
94,141,142,30744.403486,110000
95,141,143,22149.0950919,110000
96,144,145,24166.1478731,110000
97,146,147,277.062016512,110000
98,148,149,12996.691093,110000
99,150,151,994.26375784,110000
100,152,91,15252.3920084,110000
101,153,154,30641.6522659,110000
102,155,156,27575.8609912,110000
103,155,157,43548.3306598,110000
104,158,159,23113.3792185,110000
105,158,160,19125.2541511,110000
106,161,162,1312.40454879,110000
107,163,164,7005.08825284,110000
108,165,166,33124.3059553,110000
109,167,168,5878.66819571,110000
110,147,169,777.956102337,110000
111,170,171,23521.7359692,110000
112,172,159,15463.7247869,110000
113,173,174,16783.7586316,110000
114,71,175,32667.6416083,110000
115,176,177,2333.08459807,110000
116,178,47,2532.69616955,110000
117,179,62,4064.17358559,110000
118,179,180,5502.25648651,110000
119,109,181,195.509964122,110000
120,182,119,45244.2647865,110000
121,183,184,12842.2964061,110000
122,185,186,22091.4002207,110000
123,185,187,13800.1587057,110000
124,188,189,36856.7742343,110000
125,154,190,8197.25937586,110000
126,191,192,23445.4004904,110000
127,193,194,10024.3852312,110000
128,193,195,15261.140936,110000
129,195,132,4544.34326041,110000
130,196,197,72046.3074018,110000
131,198,17,28536.6986515,110000
132,199,186,12924.0898969,110000
133,200,201,261.626868674,110000
134,202,203,10065.8444604,110000
135,204,205,26191.3617046,110000
136,206,207,9238.5257393,132000
137,206,208,20014.102753,132000
138,206,209,18269.0767157,132000
139,206,210,10619.8947603,132000
140,211,212,17896.8548746,132000
141,213,214,2854.10177747,132000
142,212,215,41252.3460761,132000
143,216,217,51723.9751481,132000
144,216,218,78162.9455612,132000
145,219,220,31168.635196,132000
146,219,221,41066.8789012,132000
147,222,223,25920.3904402,132000
148,224,225,33023.5032593,132000
149,226,227,28056.7099998,132000
150,228,229,33980.0902211,132000
151,228,230,22669.4275191,132000
152,228,231,10978.6211239,132000
153,232,233,44357.9966044,132000
154,234,235,31327.0530292,132000
155,218,236,24731.9939844,132000
156,237,238,14543.1114271,132000
157,239,225,13961.2236288,132000
158,240,241,51469.4530211,132000
159,209,242,31301.8961409,132000
160,209,243,47296.9019223,132000
161,209,244,10445.8817526,132000
162,245,246,59444.707923,132000
163,247,248,1088.60839738,132000
164,249,250,87.2488747943,132000
165,249,251,17675.2512545,132000
166,252,253,43823.6869879,132000
167,252,251,109630.159152,132000
168,254,255,12797.1318142,132000
169,256,257,20665.9889599,132000
170,258,259,37371.0012254,132000
171,260,261,25482.3604504,132000
172,262,263,6091.93639446,132000
173,264,265,28464.648217,132000
174,266,267,17272.7948823,132000
175,268,269,15879.9191266,132000
176,268,270,17342.8357103,132000
177,271,272,46159.0649812,132000
178,273,274,1158.82397866,132000
179,275,276,70026.7988595,132000
180,277,278,21210.748726,132000
181,279,280,22230.2803133,132000
182,281,282,70038.2302917,132000
183,281,283,30067.9519977,132000
184,284,285,60816.8922153,132000
185,286,287,12955.3762927,132000
186,288,289,53052.5317344,132000
187,290,291,36218.4580024,132000
188,290,292,31447.8758741,132000
189,290,293,13292.6010432,132000
190,294,295,11085.3577226,132000
191,294,296,25024.329326,132000
192,297,298,21972.069909,132000
193,299,300,22305.3673821,132000
194,299,301,40643.7698566,132000
195,302,255,19643.5682707,132000
196,302,303,69052.3669233,132000
197,304,305,20705.8906896,132000
198,306,307,24341.5977089,132000
199,308,309,4080.41508394,132000
200,310,311,57495.4138534,132000
201,310,312,13095.216903,132000
202,313,314,25030.5846969,132000
203,315,316,14257.8641237,132000
204,317,318,98994.8334466,132000
205,317,319,38524.6496277,132000
206,320,321,30382.5863411,132000
207,283,322,9197.26094003,132000
208,323,324,1192.96975856,132000
209,325,326,85974.388443,132000
210,327,328,27251.4435754,132000
211,329,330,67704.4627318,132000
212,330,331,5109.32716558,132000
213,332,333,40877.1104265,132000
214,334,335,27545.2086311,132000
215,336,337,86465.1574603,132000
216,338,339,14404.6983863,132000
217,340,341,32634.0001978,132000
218,340,342,49609.9100454,132000
219,343,344,29794.0932157,132000
220,345,346,14811.5458813,132000
221,347,348,27620.6959746,132000
222,349,350,29449.2702296,132000
223,351,352,74088.4643125,132000
224,353,354,56689.1593346,132000
225,355,356,13999.5821627,132000
226,357,358,19173.2886195,132000
227,359,360,17967.9802415,132000
228,359,208,10912.7826087,132000
229,361,225,7915.97594196,132000
230,361,362,17172.8623036,132000
231,361,363,41599.213739,132000
232,335,364,24151.9860748,132000
233,365,238,50335.0214645,132000
234,365,366,43986.99287,132000
235,365,367,1316.12638987,132000
236,368,369,29973.279968,132000
237,370,371,54958.0090539,132000
238,372,373,35803.591308,132000
239,374,375,12825.5705148,132000
240,376,377,22850.9636828,132000
241,378,379,25745.6044352,132000
242,380,381,42257.9819275,132000
243,382,383,101022.151814,132000
244,384,385,7412.11718807,132000
245,386,387,2833.66331505,132000
246,388,389,779.327298015,132000
247,390,375,15071.685669,132000
248,390,389,8902.94212003,132000
249,391,392,27455.1950477,132000
250,393,394,38863.9209085,132000
251,385,395,9201.96763437,132000
252,385,396,10600.3862974,132000
253,397,398,852.098208006,132000
254,399,400,15485.4618094,132000
255,399,401,34523.9893203,132000
256,398,402,90744.9373499,132000
257,403,253,64503.9890214,132000
258,404,405,14545.8615355,132000
259,274,406,99796.6331485,132000
260,407,408,12244.3819138,132000
261,407,389,13186.9020508,132000
262,409,410,71692.5307097,132000
263,411,412,20217.627484,132000
264,413,408,11701.6096912,132000
265,414,415,8164.94793696,132000
266,414,416,32996.1841249,132000
267,417,367,26525.9093061,132000
268,418,419,62082.1490071,132000
269,420,419,4760.78672074,132000
270,421,416,72789.6744952,132000
271,421,422,7149.57950727,132000
272,423,424,4558.29983774,132000
273,424,425,11266.117189,132000
274,426,427,57116.1176686,132000
275,428,429,29842.6621142,132000
276,428,430,45056.1887724,132000
277,401,431,22740.7641734,132000
278,432,433,85838.1968549,132000
279,432,434,1705.92560825,132000
280,435,436,60734.2735305,132000
281,437,438,16028.9316663,132000
282,437,439,42261.7879311,132000
283,440,441,3375.17454461,132000
284,442,443,23082.0861087,132000
285,444,445,58235.664829,132000
286,244,225,47621.7474153,132000
287,244,242,20109.7372477,132000
288,446,447,80448.5568609,132000
289,352,448,3894.9399797,132000
290,352,449,56621.1413408,132000
291,450,451,52066.125131,132000
292,452,453,21176.4618082,132000
293,454,455,52745.1124553,132000
294,454,456,14955.5853313,132000
295,454,457,12625.5563208,132000
296,458,459,91113.9189453,132000
297,460,461,34960.4778744,132000
298,462,463,21746.8891946,132000
299,464,465,55751.6893367,132000
300,465,466,22085.9803907,132000
301,319,467,39571.6184772,132000
302,468,469,28972.3866481,132000
303,470,471,34261.7513009,132000
304,472,473,11296.7195221,132000
305,474,475,110596.824195,132000
306,474,476,36277.2736652,132000
307,477,478,15731.6265426,132000
308,402,479,35766.7191825,132000
309,402,480,55378.6425324,132000
310,473,481,54565.1357655,132000
311,473,482,59138.306899,132000
312,473,483,13995.729547,132000
313,484,485,24383.57417,132000
314,484,486,24079.746138,132000
315,487,488,1111.05990641,132000
316,367,280,39660.5256844,132000
317,367,489,28404.9177871,132000
318,490,491,8702.67708996,132000
319,492,493,80446.0401064,132000
320,354,494,50325.8213775,132000
321,354,495,45710.5964221,132000
322,496,497,18771.6633144,132000
323,305,498,9207.99514383,132000
324,305,499,14475.8898988,132000
325,500,501,18537.826158,132000
326,502,408,18135.7620162,132000
327,502,503,16892.873948,132000
328,502,238,44459.8603285,132000
329,502,504,39226.3308451,132000
330,505,342,18157.0382711,132000
331,505,506,19657.9294902,132000
332,505,507,20863.9660612,132000
333,508,509,32398.274146,132000
334,508,510,34720.2857905,132000
335,511,512,12134.6038429,132000
336,215,513,7904.70451699,132000
337,514,515,38934.4776476,132000
338,516,517,1285.34789299,132000
339,518,519,109339.710007,132000
340,518,520,61800.4042273,132000
341,521,522,22162.4184941,132000
342,523,524,23039.8167016,132000
343,525,526,87746.9083813,132000
344,527,528,45814.2423286,132000
345,529,530,27506.3793395,132000
346,529,531,64413.8522482,132000
347,532,533,12744.38788,132000
348,534,535,86120.4259129,132000
349,536,537,43794.2554877,132000
350,538,539,158329.424965,132000
351,538,540,45466.4205646,132000
352,541,542,99158.2108264,132000
353,543,544,90314.1716951,132000
354,545,546,56270.5622469,132000
355,545,512,78992.2830624,132000
356,545,547,42278.1314087,132000
357,548,549,13065.8786503,132000
358,550,551,23295.4531542,132000
359,552,553,735.659245511,132000
360,554,555,5990.87070138,132000
361,556,557,24934.0572468,132000
362,558,559,100916.69225,132000
363,558,214,74630.2939822,132000
364,560,561,7320.07088703,132000
365,562,563,57894.4371509,132000
366,564,565,34605.7887468,132000
367,564,566,44112.49556,132000
368,567,568,55229.5224987,132000
369,494,495,6111.46885787,132000
370,569,570,25367.2378897,132000
371,571,572,14009.4284901,132000
372,573,574,35184.3648237,132000
373,575,576,16464.6086023,132000
374,577,578,13615.7635593,132000
375,579,580,59328.1023368,132000
376,298,581,24156.5084532,132000
377,582,583,67847.2455738,132000
378,584,585,38639.2100525,132000
379,408,586,15603.8975945,132000
380,587,588,45915.8087268,132000
381,589,590,7456.43618925,132000
382,591,592,21168.3308239,132000
383,593,594,34756.9335182,132000
384,595,594,38948.5454806,132000
385,596,597,94835.0692928,132000
386,592,598,29859.9175886,132000
387,599,600,9960.22284778,132000
388,599,601,14663.5903884,132000
389,602,603,26782.6835847,132000
390,602,604,52042.9086443,132000
391,605,606,38060.365881,132000
392,607,608,74034.9522239,132000
393,607,383,117610.343699,132000
394,607,609,49296.7151808,132000
395,610,611,443.525347636,132000
396,612,613,14955.5465217,132000
397,612,614,47108.4047932,132000
398,615,616,38735.0838663,132000
399,617,618,36555.065073,132000
400,617,619,65957.5218885,132000
401,620,416,1616.67119168,132000
402,530,531,57398.2377697,132000
403,314,621,39626.8260724,132000
404,622,623,56044.1079619,132000
405,624,625,17230.7974048,132000
406,626,627,32462.9016108,132000
407,628,629,4917.31263117,132000
408,630,631,7110.72270828,132000
409,630,632,33191.4464366,132000
410,633,270,10105.2527164,132000
411,634,635,28899.7721759,132000
412,636,637,40526.0046634,132000
413,638,581,6098.97672865,132000
414,639,640,33072.0324134,132000
415,641,642,10811.8063016,132000
416,641,600,20588.7681924,132000
417,643,644,165260.785794,132000
418,645,646,20188.8500422,132000
419,300,647,49498.3058287,132000
420,300,341,63213.7329727,132000
421,648,649,24144.5066097,132000
422,456,650,9088.87153017,132000
423,651,652,38636.75125,132000
424,653,654,38943.830502,132000
425,655,656,1927.24136342,132000
426,655,451,40520.4648351,132000
427,657,658,32806.6167576,132000
428,659,261,24737.7737136,132000
429,659,660,17231.1349549,132000
430,337,661,49117.514015,132000
431,531,662,34865.1882896,132000
432,447,663,47777.1084959,132000
433,664,665,15576.0813894,132000
434,223,666,13884.9937324,132000
435,223,667,6992.87311378,132000
436,668,669,513.395213737,132000
437,670,278,30185.6106001,132000
438,670,671,10523.0689803,132000
439,672,673,20412.4109069,132000
440,674,539,81378.7642135,132000
441,561,675,40790.0417078,132000
442,671,676,29323.7464227,132000
443,677,678,626.407289348,132000
444,679,680,23144.8897498,132000
445,632,221,30064.6330773,132000
446,681,682,14753.9102826,132000
447,683,684,66966.3406999,132000
448,685,686,56181.6120218,132000
449,687,688,60686.9977754,132000
450,687,689,17158.2717468,132000
451,689,690,41524.215956,132000
452,691,692,89949.1713782,132000
453,691,693,90119.9761013,132000
454,691,694,29117.4799115,132000
455,616,695,19512.2237124,132000
456,616,696,23970.2096046,132000
457,697,698,11152.3150093,132000
458,699,700,7736.76102806,132000
459,701,702,13586.7814123,132000
460,703,704,199.391508961,132000
461,705,706,3596.27781948,132000
462,707,708,23075.9259458,132000
463,709,710,3556.21429771,132000
464,709,647,26392.1548009,132000
465,392,711,27240.2603352,132000
466,712,713,8975.13931349,132000
467,714,715,21138.7094163,132000
468,471,716,13307.5882347,132000
469,358,717,43021.2871002,132000
470,718,719,90742.2025438,132000
471,433,720,16945.225799,132000
472,721,722,7153.67947313,132000
473,723,724,80922.549621,132000
474,723,725,32489.7650069,132000
475,726,727,9796.22424451,132000
476,726,728,15807.9362184,132000
477,726,696,11605.9325925,132000
478,726,729,13191.3521996,132000
479,730,731,75610.4760136,132000
480,732,733,18694.7662526,132000
481,734,735,48109.7116835,132000
482,443,373,6665.22648393,132000
483,736,243,6608.64302193,132000
484,242,737,8213.29954363,132000
485,738,739,30629.4362032,132000
486,740,486,8582.5643004,132000
487,741,486,20630.3015733,132000
488,742,743,40790.6568401,132000
489,744,658,4685.99495914,132000
490,644,745,9187.38501922,132000
491,644,746,64123.8535061,132000
492,747,748,4754.42712038,132000
493,749,750,36331.5583173,132000
494,751,303,5717.2145317,132000
495,752,753,12711.6019886,132000
496,754,755,21306.8018287,132000
497,476,475,5430.74487003,132000
498,756,757,15419.1602855,132000
499,758,733,9154.07691191,132000
500,759,760,10416.2726866,132000
501,455,761,43129.9277241,132000
502,762,763,12777.0676124,132000
503,764,765,143021.685327,132000
504,761,766,38055.1047974,132000
505,568,755,51932.3503265,132000
506,568,539,17494.3689951,132000
507,767,768,5120.99231768,132000
508,769,770,13641.127062,132000
509,771,214,59266.6945742,132000
510,771,360,380.579549164,132000
511,609,608,15197.5100769,132000
512,598,772,42214.4645277,132000
513,519,773,76867.5110609,132000
514,774,775,30213.2094653,132000
515,776,777,7947.88526925,132000
516,778,601,10747.3369577,132000
517,779,780,67439.8406603,132000
518,360,781,24465.3568864,132000
519,781,339,31806.9973761,132000
520,782,647,11599.7144922,132000
521,782,263,8712.59224647,132000
522,783,547,51449.6609997,132000
523,784,785,14026.480116,132000
524,750,786,34396.8357703,132000
525,296,787,20508.9265566,132000
526,788,789,15469.2025892,132000
527,790,601,24063.1195976,132000
528,791,389,9607.71057012,132000
529,621,792,46122.6755309,132000
530,793,794,66132.9160988,132000
531,480,693,10035.570137,132000
532,292,795,33449.6305602,132000
533,796,580,27483.2646604,132000
534,797,291,17433.8132552,132000
535,798,241,45938.1809383,132000
536,451,799,11734.2952125,132000
537,488,748,26840.7283453,132000
538,800,303,71512.1349562,132000
539,760,801,2063.43727748,132000
540,280,503,13950.5228994,132000
541,802,803,36726.1641066,132000
542,802,804,13328.2174845,132000
543,802,676,53678.9334238,132000
544,792,241,17932.9079623,132000
545,649,805,38634.7364206,132000
546,603,806,40696.4327676,132000
547,807,808,16741.8811067,132000
548,676,809,13535.2873639,132000
549,810,811,16617.9526441,132000
550,806,812,9373.96143395,132000
551,806,813,11722.4610525,132000
552,814,815,21955.9668362,132000
553,427,816,27324.2083018,132000
554,812,813,2601.8043659,132000
555,211,738,63650.7632425,220000
556,615,817,18924.7124727,220000
557,615,616,37920.4111351,220000
558,615,818,38001.2906017,220000
559,819,820,60148.3625333,220000
560,821,396,29791.5432227,220000
561,821,822,22233.5160728,220000
562,210,339,28118.8641803,220000
563,210,242,53837.1709417,220000
564,823,824,84598.5738071,220000
565,825,826,48237.2698769,220000
566,237,827,11181.1030416,220000
567,828,829,16415.8832149,220000
568,830,831,32583.0247351,220000
569,832,633,31272.4427537,220000
570,833,834,102934.71437,220000
571,833,835,13541.9780685,220000
572,8,148,51452.7178673,220000
573,8,836,36326.4138765,220000
574,837,246,69660.9359669,220000
575,838,339,31230.5214843,220000
576,839,840,3243.13272234,220000
577,841,842,91452.0022797,220000
578,843,844,19679.3258937,220000
579,845,15,34172.4468443,220000
580,845,203,31595.9465072,220000
581,846,847,16795.5269758,220000
582,848,849,21665.8018749,220000
583,850,851,35367.1688443,220000
584,852,853,26533.5373421,220000
585,290,854,7873.06772977,220000
586,290,855,175235.600289,220000
587,856,857,7558.73963759,220000
588,294,858,29652.6376255,220000
589,859,860,38629.9467908,220000
590,859,861,43378.3700119,220000
591,862,341,91859.8005272,220000
592,862,863,54665.886149,220000
593,864,865,3502.6487039,220000
594,517,866,1429.35846562,220000
595,308,867,24546.2224905,220000
596,868,24,3583.83251068,220000
597,32,869,16509.0264255,220000
